Mass Spring Only Mass Velocity Data Oct 31, 2023 1:50 PM
Time (s)	Velocity (cm/s)
0.680	NaN
0.690	-2.967
0.700	-6.837
0.710	-9.417
0.720	-12.857
0.730	-15.867
0.740	-18.060
0.750	-21.457
0.760	-24.037
0.770	-25.757
0.780	-28.337
0.790	-29.627
0.800	-31.777
0.810	-33.067
0.820	-33.927
0.830	-34.787
0.840	-35.217
0.850	-35.647
0.860	-35.217
0.870	-36.507
0.880	-34.787
0.890	-33.540
0.900	-32.207
0.910	-30.917
0.920	-28.767
0.930	-26.617
0.940	-24.897
0.950	-22.747
0.960	-19.737
0.970	-17.157
0.980	-13.717
0.990	-11.997
1.000	-7.697
1.010	-5.117
1.020	-1.720
1.030	1.333
1.040	4.773
1.050	7.353
1.060	10.793
1.070	14.233
1.080	15.953
1.090	20.210
1.100	22.403
1.110	24.123
1.120	26.703
1.130	29.283
1.140	31.003
1.150	32.250
1.160	33.583
1.170	34.443
1.180	35.733
1.190	36.593
1.200	37.883
1.210	35.690
1.220	36.163
1.230	34.443
1.240	32.723
1.250	30.143
1.260	28.853
1.270	27.520
1.280	25.843
1.290	23.693
1.300	20.683
1.310	18.963
1.320	15.523
1.330	13.373
1.340	9.890
1.350	6.923
1.360	3.913
1.370	0.903
1.380	-2.537
1.390	-5.977
1.400	-9.417
1.410	-13.287
1.420	-15.437
1.430	-18.920
1.440	-20.597
1.450	-23.607
1.460	-25.757
1.470	-27.907
1.480	-29.627
1.490	-31.347
1.500	-32.637
1.510	-33.927
1.520	-34.787
1.530	-35.217
1.540	-36.507
1.550	-35.217
1.560	-35.217
1.570	-34.787
1.580	-33.970
1.590	-32.637
1.600	-30.917
1.610	-28.767
1.620	-26.617
1.630	-25.327
1.640	-23.177
1.650	-19.737
1.660	-17.587
1.670	-14.147
1.680	-11.997
1.690	-8.127
1.700	-5.117
1.710	-2.150
1.720	1.333
1.730	3.913
1.740	7.353
1.750	11.223
1.760	13.803
1.770	15.953
1.780	19.780
1.790	22.403
1.800	23.693
1.810	26.703
1.820	28.853
1.830	30.573
1.840	31.820
1.850	33.583
1.860	34.013
1.870	34.873
1.880	34.443
1.890	35.303
1.900	35.260
1.910	34.873
1.920	34.013
1.930	33.153
1.940	31.863
1.950	30.573
1.960	28.380
1.970	26.703
1.980	24.123
1.990	21.543
2.000	18.963
2.010	16.383
2.020	13.373
2.030	10.320
2.040	6.923
2.050	3.913
2.060	0.903
2.070	-2.537
2.080	-5.547
2.090	-8.557
2.100	-11.997
2.110	-14.577
2.120	-18.060
2.130	-20.167
2.140	-23.177
2.150	-25.327
2.160	-27.477
2.170	-29.627
2.180	-30.917
2.190	-32.207
2.200	-33.927
2.210	-34.357
2.220	-36.507
2.230	-35.647
2.240	-35.217
2.250	-34.787
2.260	-34.787
2.270	-33.497
2.280	-33.110
2.290	-30.917
2.300	-29.197
2.310	-27.047
2.320	-25.757
2.330	-24.037
2.340	-19.737
2.350	-18.447
2.360	-14.147
2.370	-13.287
2.380	-8.127
2.390	-5.547
2.400	-2.150
2.410	0.473
2.420	3.483
2.430	6.493
2.440	10.363
2.450	14.233
2.460	15.523
2.470	19.823
2.480	21.500
2.490	23.263
2.500	27.133
2.510	28.853
2.520	30.573
2.530	31.863
2.540	32.680
2.550	34.013
2.560	33.583
2.570	35.733
2.580	35.303
2.590	35.260
2.600	34.873
2.610	34.013
2.620	33.153
2.630	32.293
2.640	30.143
2.650	28.810
2.660	26.703
2.670	24.553
2.680	21.543
2.690	19.393
2.700	16.383
2.710	13.373
2.720	10.750
2.730	6.923
2.740	4.343
2.750	0.903
2.760	-2.107
2.770	-5.547
2.780	-8.127
2.790	-11.567
2.800	-15.007
2.810	-17.200
2.820	-20.167
2.830	-22.747
2.840	-24.897
2.850	-27.047
2.860	-29.197
2.870	-30.487
2.880	-32.637
2.890	-33.067
2.900	-35.647
2.910	-34.787
2.920	-35.217
2.930	-34.787
2.940	-35.217
2.950	-33.927
2.960	-33.497
2.970	-32.250
2.980	-30.917
2.990	-29.197
3.000	-27.907
3.010	-25.757
3.020	-23.177
3.030	-19.737
3.040	-18.877
3.050	-14.147
3.060	-12.857
3.070	-8.987
3.080	-5.547
3.090	-3.010
3.100	0.473
3.110	3.483
3.120	6.493
3.130	9.933
3.140	12.943
3.150	15.523
3.160	18.963
3.170	21.070
3.180	23.263
3.190	26.273
3.200	27.993
3.210	30.143
3.220	31.433
3.230	32.680
3.240	32.293
3.250	34.873
3.260	34.873
3.270	35.733
3.280	35.303
3.290	34.830
3.300	34.013
3.310	33.153
3.320	31.863
3.330	30.573
3.340	28.853
3.350	27.090
3.360	24.123
3.370	21.973
3.380	20.253
3.390	16.813
3.400	13.803
3.410	10.750
3.420	7.783
3.430	4.773
3.440	1.333
3.450	-2.107
3.460	-4.687
3.470	-7.697
3.480	-11.567
3.490	-14.577
3.500	-16.727
3.510	-19.780
3.520	-22.317
3.530	-24.467
3.540	-26.617
3.550	-28.767
3.560	-30.057
3.570	-31.347
3.580	-34.357
3.590	-34.357
3.600	-35.647
3.610	-36.077
3.620	-35.647
3.630	-35.217
3.640	-34.357
3.650	-33.927
3.660	-32.207
3.670	-30.960
3.680	-29.627
3.690	-27.907
3.700	-26.617
3.710	-23.177
3.720	-20.167
3.730	-19.307
3.740	-14.147
3.750	-13.287
3.760	-8.987
3.770	-5.547
3.780	-3.397
3.790	0.000
3.800	3.053
3.810	6.493
3.820	9.503
3.830	12.943
3.840	14.663
3.850	18.963
3.860	20.210
3.870	23.263
3.880	25.843
3.890	27.993
3.900	29.713
3.910	31.003
3.920	30.960
3.930	33.583
3.940	34.443
3.950	34.873
3.960	35.303
3.970	34.873
3.980	34.830
3.990	34.013
4.000	33.153
4.010	32.293
4.020	30.143
4.030	28.853
4.040	27.090
4.050	24.553
4.060	22.403
4.070	19.823
4.080	17.243
4.090	14.233
4.100	11.223
4.110	8.170
4.120	5.203
4.130	1.763
4.140	-1.247
4.150	-4.687
4.160	-7.267
4.170	-10.707
4.180	-13.717
4.190	-16.727
4.200	-19.350
4.210	-21.887
4.220	-24.037
4.230	-26.617
4.240	-28.337
4.250	-30.057
4.260	-33.067
4.270	-32.637
4.280	-33.927
4.290	-34.357
4.300	-34.787
4.310	-34.787
4.320	-34.787
4.330	-34.357
4.340	-33.497
4.350	-32.207
4.360	-31.390
4.370	-29.627
4.380	-27.907
4.390	-26.187
4.400	-22.747
4.410	-21.457
4.420	-18.447
4.430	-15.867
4.440	-12.857
4.450	-10.277
4.460	-6.407
4.470	-3.397
4.480	-0.430
4.490	2.623
4.500	5.633
4.510	9.073
4.520	12.513
4.530	14.233
4.540	18.963
4.550	19.780
4.560	22.833
4.570	25.843
4.580	27.563
4.590	28.853
4.600	29.283
4.610	32.293
4.620	33.110
4.630	34.013
4.640	34.443
4.650	34.443
4.660	35.303
4.670	34.830
4.680	34.873
4.690	34.013
4.700	32.723
4.710	30.573
4.720	29.283
4.730	26.660
4.740	24.553
4.750	22.833
4.760	19.823
4.770	18.103
4.780	14.233
4.790	12.513
4.800	8.600
4.810	5.633
4.820	2.623
4.830	0.043
4.840	-3.397
4.850	-5.977
4.860	-10.277
4.870	-13.717
4.880	-16.297
4.890	-20.597
4.900	-22.790
4.910	-24.897
4.920	-27.047
4.930	-28.767
4.940	-31.777
4.950	-31.777
4.960	-32.637
4.970	-33.497
4.980	-34.357
4.990	-34.787
5.000	-34.787
5.010	-34.787
5.020	-33.927
5.030	-33.497
5.040	-32.637
5.050	-30.917
5.060	-30.100
5.070	-27.907
5.080	-25.757
5.090	-23.177
5.100	-21.887
5.110	-18.877
5.120	-15.867
5.130	-12.857
5.140	-10.707
5.150	-7.267
5.160	-3.827
5.170	-0.860
5.180	2.623
5.190	5.203
5.200	9.073
5.210	11.653
5.220	14.233
5.230	18.103
5.240	19.393
5.250	22.790
5.260	24.983
5.270	26.273
5.280	28.423
5.290	30.573
5.300	31.863
5.310	33.110
5.320	34.013
5.330	34.443
5.340	34.873
5.350	34.873
5.360	34.443
5.370	34.400
5.380	33.153
5.390	32.293
5.400	30.573
5.410	29.283
5.420	27.133
5.430	24.940
5.440	23.263
5.450	20.253
5.460	17.673
5.470	14.663
5.480	12.083
5.490	9.030
5.500	5.633
5.510	2.623
5.520	-0.387
5.530	-3.827
5.540	-6.407
5.550	-9.847
5.560	-13.287
5.570	-15.437
5.580	-18.447
5.590	-21.070
5.600	-23.607
5.610	-27.047
5.620	-27.907
5.630	-29.627
5.640	-31.347
5.650	-32.207
5.660	-33.497
5.670	-33.927
5.680	-34.357
5.690	-34.787
5.700	-34.787
5.710	-34.357
5.720	-33.497
5.730	-32.637
5.740	-31.347
5.750	-30.100
5.760	-27.907
5.770	-25.757
5.780	-24.037
5.790	-22.317
5.800	-18.447
5.810	-16.727
5.820	-12.857
5.830	-11.137
5.840	-7.697
5.850	-4.257
5.860	-1.247
5.870	1.720
5.880	4.773
5.890	7.783
5.900	11.653
5.910	13.373
5.920	17.673
5.930	18.533
5.940	22.790
5.950	23.693
5.960	25.843
5.970	28.423
5.980	30.143
5.990	32.293
6.000	33.540
6.010	34.013
6.020	34.443
6.030	35.303
6.040	34.443
6.050	34.443
6.060	33.970
6.070	33.153
6.080	32.293
6.090	31.003
6.100	29.283
6.110	27.563
6.120	25.370
6.130	23.693
6.140	20.253
6.150	18.533
6.160	14.663
6.170	12.513
6.180	8.643
6.190	6.020
6.200	3.053
6.210	0.043
6.220	-3.397
6.230	-6.407
6.240	-9.417
6.250	-12.857
6.260	-15.007
6.270	-18.447
6.280	-20.167
6.290	-24.940
6.300	-25.327
6.310	-27.907
6.320	-29.197
6.330	-30.487
6.340	-32.637
6.350	-33.067
6.360	-33.927
6.370	-34.787
6.380	-34.787
6.390	-34.357
6.400	-34.357
6.410	-33.927
6.420	-32.637
6.430	-31.347
6.440	-29.627
6.450	-27.950
6.460	-26.187
6.470	-24.467
6.480	-21.887
6.490	-18.447
6.500	-17.157
6.510	-13.287
6.520	-11.137
6.530	-7.697
6.540	-4.687
6.550	-1.677
6.560	1.290
6.570	4.773
6.580	8.213
6.590	11.223
6.600	12.943
6.610	17.243
6.620	18.963
6.630	20.640
6.640	24.553
6.650	26.273
6.660	27.993
6.670	30.143
6.680	31.433
6.690	32.723
6.700	33.540
6.710	34.013
6.720	34.873
6.730	34.443
6.740	34.443
6.750	33.970
6.760	33.583
6.770	31.863
6.780	31.003
6.790	29.283
6.800	27.993
6.810	25.370
6.820	23.263
6.830	20.683
6.840	18.533
6.850	15.523
6.860	12.513
6.870	9.503
6.880	6.923
6.890	3.440
6.900	0.043
6.910	-2.967
6.920	-5.977
6.930	-8.987
6.940	-12.427
6.950	-15.007
6.960	-17.587
6.970	-21.887
6.980	-22.747
6.990	-25.370
7.000	-27.047
7.010	-29.197
7.020	-30.487
7.030	-32.207
7.040	-33.067
7.050	-33.927
7.060	-34.357
7.070	-34.357
7.080	-34.787
7.090	-33.927
7.100	-33.927
7.110	-32.637
7.120	-31.777
7.130	-30.057
7.140	-27.907
7.150	-26.660
7.160	-25.327
7.170	-22.747
7.180	-18.447
7.190	-18.017
7.200	-13.287
7.210	-11.567
7.220	-8.557
7.230	-5.117
7.240	-1.677
7.250	0.903
7.260	4.300
7.270	6.923
7.280	11.223
7.290	12.943
7.300	16.383
7.310	17.243
7.320	22.403
7.330	23.650
7.340	25.413
7.350	28.423
7.360	30.143
7.370	31.433
7.380	32.293
7.390	33.540
7.400	34.443
7.410	34.443
7.420	34.873
7.430	34.443
7.440	33.583
7.450	33.540
7.460	31.863
7.470	31.433
7.480	29.283
7.490	27.563
7.500	25.843
7.510	23.650
7.520	20.683
7.530	18.533
7.540	15.953
7.550	12.943
7.560	9.503
7.570	6.923
7.580	3.870
7.590	0.903
7.600	-2.537
7.610	-5.977
7.620	-8.557
7.630	-11.567
7.640	-15.007
7.650	-18.447
7.660	-20.167
7.670	-22.747
7.680	-24.467
7.690	-27.090
7.700	-28.337
7.710	-30.487
7.720	-31.347
7.730	-33.067
7.740	-33.497
7.750	-33.927
7.760	-34.357
7.770	-33.927
7.780	-34.357
7.790	-33.067
7.800	-32.637
7.810	-31.347
7.820	-30.057
7.830	-28.337
7.840	-26.617
7.850	-24.940
7.860	-21.887
7.870	-19.737
7.880	-17.587
7.890	-14.147
7.900	-11.137
7.910	-8.987
7.920	-5.117
7.930	-2.537
7.940	0.903
7.950	3.870
7.960	6.923
7.970	10.363
7.980	12.513
7.990	15.093
8.000	18.103
8.010	21.543
8.020	23.650
8.030	24.983
8.040	27.563
8.050	29.713
8.060	31.003
8.070	32.293
8.080	33.153
8.090	33.970
8.100	34.443
8.110	34.443
8.120	34.873
8.130	34.013
8.140	33.110
8.150	32.293
8.160	31.003
8.170	29.713
8.180	27.993
8.190	25.413
8.200	24.080
8.210	21.113
8.220	18.533
8.230	15.953
8.240	13.373
8.250	9.933
8.260	6.923
8.270	4.343
8.280	1.290
8.290	-2.537
8.300	-5.547
8.310	-8.127
8.320	-10.707
8.330	-15.437
8.340	-16.727
8.350	-20.167
8.360	-22.317
8.370	-24.897
8.380	-27.047
8.390	-28.810
8.400	-30.487
8.410	-31.347
8.420	-32.637
8.430	-33.497
8.440	-33.927
8.450	-33.927
8.460	-33.927
8.470	-33.927
8.480	-33.497
8.490	-33.067
8.500	-31.777
8.510	-30.917
8.520	-28.767
8.530	-27.047
8.540	-24.897
8.550	-21.930
8.560	-19.737
8.570	-18.017
8.580	-14.147
8.590	-11.567
8.600	-8.987
8.610	-5.547
8.620	-2.537
8.630	0.903
8.640	3.483
8.650	6.450
8.660	8.643
8.670	12.083
8.680	15.953
8.690	17.673
8.700	21.543
8.710	22.833
8.720	24.940
8.730	27.563
8.740	29.283
8.750	31.003
8.760	31.863
8.770	32.723
8.780	33.540
8.790	34.443
8.800	34.443
8.810	34.443
8.820	33.583
8.830	33.583
8.840	31.820
8.850	31.433
8.860	29.713
8.870	27.563
8.880	26.273
8.890	24.123
8.900	21.070
8.910	18.963
8.920	16.383
8.930	13.803
8.940	9.933
8.950	7.783