Mass Spring Dampener Position Data - Oct.31.2023. Oct 31, 2023 1:41 PM
Time (s)	Distance (cm)	Dist Error (cm)
0.530	28.408	0.239
0.540	28.447	0.239
0.550	28.443	0.239
0.560	28.405	0.239
0.570	28.323	0.239
0.580	28.208	0.239
0.590	28.053	0.239
0.600	27.864	0.239
0.610	27.637	0.239
0.620	27.379	0.239
0.630	27.108	0.239
0.640	26.777	0.239
0.650	26.421	0.239
0.660	26.064	0.239
0.670	25.708	0.239
0.680	25.309	0.239
0.690	24.857	0.239
0.700	24.432	0.239
0.710	23.989	0.239
0.720	23.543	0.239
0.730	23.057	0.239
0.740	22.645	0.239
0.750	22.206	0.239
0.760	21.743	0.239
0.770	21.360	0.239
0.780	20.952	0.239
0.790	20.535	0.239
0.800	20.153	0.239
0.810	19.814	0.239
0.820	19.509	0.239
0.830	19.233	0.239
0.840	18.963	0.239
0.850	18.705	0.239
0.860	18.551	0.239
0.870	18.354	0.239
0.880	18.281	0.239
0.890	18.195	0.239
0.900	18.157	0.239
0.910	18.166	0.239
0.920	18.205	0.239
0.930	18.282	0.239
0.940	18.369	0.239
0.950	18.550	0.239
0.960	18.705	0.239
0.970	18.963	0.239
0.980	19.217	0.239
0.990	19.484	0.239
1.000	19.811	0.239
1.010	20.142	0.239
1.020	20.478	0.239
1.030	20.896	0.239
1.040	21.304	0.239
1.050	21.726	0.239
1.060	22.131	0.239
1.070	22.596	0.239
1.080	23.043	0.239
1.090	23.460	0.239
1.100	23.904	0.239
1.110	24.338	0.239
1.120	24.760	0.239
1.130	25.156	0.239
1.140	25.551	0.239
1.150	25.935	0.239
1.160	26.296	0.239
1.170	26.628	0.239
1.180	26.942	0.239
1.190	27.230	0.239
1.200	27.484	0.239
1.210	27.713	0.239
1.220	27.902	0.239
1.230	28.057	0.239
1.240	28.174	0.239
1.250	28.251	0.239
1.260	28.290	0.239
1.270	28.291	0.239
1.280	28.252	0.239
1.290	28.175	0.239
1.300	28.059	0.239
1.310	27.905	0.239
1.320	27.720	0.239
1.330	27.502	0.239
1.340	27.248	0.239
1.350	26.965	0.239
1.360	26.655	0.239
1.370	26.320	0.239
1.380	25.985	0.239
1.390	25.607	0.239
1.400	25.212	0.239
1.410	24.800	0.239
1.420	24.404	0.239
1.430	23.970	0.239
1.440	23.532	0.239
1.450	23.077	0.239
1.460	22.652	0.239
1.470	22.209	0.239
1.480	21.741	0.239
1.490	21.367	0.239
1.500	20.993	0.239
1.510	20.611	0.239
1.520	20.246	0.239
1.530	19.906	0.239
1.540	19.593	0.239
1.550	19.309	0.239
1.560	19.017	0.239
1.570	18.820	0.239
1.580	18.635	0.239
1.590	18.468	0.239
1.600	18.335	0.239
1.610	18.288	0.239
1.620	18.245	0.239
1.630	18.246	0.239
1.640	18.281	0.239
1.650	18.319	0.239
1.660	18.449	0.239
1.670	18.625	0.239
1.680	18.785	0.239
1.690	19.004	0.239
1.700	19.289	0.239
1.710	19.560	0.239
1.720	19.865	0.239
1.730	20.201	0.239
1.740	20.580	0.239
1.750	20.980	0.239
1.760	21.367	0.239
1.770	21.737	0.239
1.780	22.168	0.239
1.790	22.628	0.239
1.800	23.037	0.239
1.810	23.489	0.239
1.820	23.954	0.239
1.830	24.392	0.239
1.840	24.788	0.239
1.850	25.219	0.239
1.860	25.631	0.239
1.870	25.993	0.239
1.880	26.355	0.239
1.890	26.690	0.239
1.900	26.987	0.239
1.910	27.267	0.239
1.920	27.521	0.239
1.930	27.741	0.239
1.940	27.917	0.239
1.950	28.068	0.239
1.960	28.180	0.239
1.970	28.258	0.239
1.980	28.297	0.239
1.990	28.302	0.239
2.000	28.268	0.239
2.010	28.191	0.239
2.020	28.083	0.239
2.030	27.933	0.239
2.040	27.749	0.239
2.050	27.534	0.239
2.060	27.281	0.239
2.070	27.001	0.239
2.080	26.688	0.239
2.090	26.353	0.239
2.100	26.014	0.239
2.110	25.636	0.239
2.120	25.236	0.239
2.130	24.849	0.239
2.140	24.424	0.239
2.150	23.994	0.239
2.160	23.561	0.239
2.170	23.122	0.239
2.180	22.684	0.239
2.190	22.250	0.239
2.200	21.795	0.239
2.210	21.399	0.239
2.220	21.017	0.239
2.230	20.635	0.239
2.240	20.304	0.239
2.250	19.961	0.239
2.260	19.647	0.239
2.270	19.359	0.239
2.280	19.097	0.239
2.290	18.878	0.239
2.300	18.690	0.239
2.310	18.535	0.239
2.320	18.406	0.239
2.330	18.333	0.239
2.340	18.291	0.239
2.350	18.291	0.239
2.360	18.330	0.239
2.370	18.373	0.239
2.380	18.503	0.239
2.390	18.658	0.239
2.400	18.834	0.239
2.410	19.028	0.239
2.420	19.274	0.239
2.430	19.554	0.239
2.440	19.859	0.239
2.450	20.195	0.239
2.460	20.552	0.239
2.470	20.926	0.239
2.480	21.327	0.239
2.490	21.736	0.239
2.500	22.140	0.239
2.510	22.587	0.239
2.520	23.022	0.239
2.530	23.431	0.239
2.540	23.865	0.239
2.550	24.292	0.239
2.560	24.709	0.239
2.570	25.096	0.239
2.580	25.488	0.239
2.590	25.867	0.239
2.600	26.228	0.239
2.610	26.568	0.239
2.620	26.878	0.239
2.630	27.162	0.239
2.640	27.421	0.239
2.650	27.640	0.239
2.660	27.830	0.239
2.670	27.985	0.239
2.680	28.101	0.239
2.690	28.179	0.239
2.700	28.222	0.239
2.710	28.223	0.239
2.720	28.176	0.239
2.730	28.103	0.239
2.740	27.996	0.239
2.750	27.854	0.239
2.760	27.674	0.239
2.770	27.464	0.239
2.780	27.219	0.239
2.790	26.944	0.239
2.800	26.643	0.239
2.810	26.338	0.239
2.820	25.990	0.239
2.830	25.621	0.239
2.840	25.256	0.239
2.850	24.826	0.239
2.860	24.444	0.239
2.870	24.019	0.239
2.880	23.585	0.239
2.890	23.134	0.239
2.900	22.699	0.239
2.910	22.291	0.239
2.920	21.862	0.239
2.930	21.415	0.239
2.940	21.080	0.239
2.950	20.728	0.239
2.960	20.367	0.239
2.970	20.027	0.239
2.980	19.697	0.239
2.990	19.409	0.239
3.000	19.186	0.239
3.010	18.967	0.239
3.020	18.743	0.239
3.030	18.623	0.239
3.040	18.512	0.239
3.050	18.392	0.239
3.060	18.358	0.239
3.070	18.354	0.239
3.080	18.389	0.239
3.090	18.479	0.239
3.100	18.591	0.239
3.110	18.699	0.239
3.120	18.914	0.239
3.130	19.100	0.239
3.140	19.354	0.239
3.150	19.646	0.239
3.160	19.952	0.239
3.170	20.284	0.239
3.180	20.640	0.239
3.190	21.019	0.239
3.200	21.368	0.239
3.210	21.738	0.239
3.220	22.194	0.239
3.230	22.616	0.239
3.240	23.038	0.239
3.250	23.472	0.239
3.260	23.907	0.239
3.270	24.333	0.239
3.280	24.746	0.239
3.290	25.120	0.239
3.300	25.516	0.239
3.310	25.891	0.239
3.320	26.222	0.239
3.330	26.553	0.239
3.340	26.855	0.239
3.350	27.130	0.239
3.360	27.376	0.239
3.370	27.591	0.239
3.380	27.772	0.239
3.390	27.918	0.239
3.400	28.030	0.239
3.410	28.108	0.239
3.420	28.152	0.239
3.430	28.156	0.239
3.440	28.122	0.239
3.450	28.049	0.239
3.460	27.942	0.239
3.470	27.801	0.239
3.480	27.624	0.239
3.490	27.397	0.239
3.500	27.152	0.239
3.510	26.882	0.239
3.520	26.581	0.239
3.530	26.255	0.239
3.540	25.907	0.239
3.550	25.559	0.239
3.560	25.172	0.239
3.570	24.773	0.239
3.580	24.365	0.239
3.590	23.969	0.239
3.600	23.548	0.239
3.610	23.123	0.239
3.620	22.702	0.239
3.630	22.281	0.239
3.640	21.869	0.239
3.650	21.435	0.239
3.660	21.078	0.239
3.670	20.708	0.239
3.680	20.352	0.239
3.690	20.021	0.239
3.700	19.742	0.239
3.710	19.463	0.239
3.720	19.209	0.239
3.730	18.995	0.239
3.740	18.793	0.239
3.750	18.660	0.239
3.760	18.545	0.239
3.770	18.450	0.239
3.780	18.399	0.239
3.790	18.404	0.239
3.800	18.443	0.239
3.810	18.529	0.239
3.820	18.637	0.239
3.830	18.757	0.239
3.840	18.956	0.239
3.850	19.167	0.239
3.860	19.399	0.239
3.870	19.683	0.239
3.880	19.972	0.239
3.890	20.299	0.239
3.900	20.652	0.239
3.910	21.022	0.239
3.920	21.375	0.239
3.930	21.740	0.239
3.940	22.192	0.239
3.950	22.610	0.239
3.960	23.031	0.239
3.970	23.462	0.239
3.980	23.888	0.239
3.990	24.305	0.239
4.000	24.718	0.239
4.010	25.118	0.239
4.020	25.459	0.239
4.030	25.858	0.239
4.040	26.207	0.239
4.050	26.539	0.239
4.060	26.823	0.239
4.070	27.098	0.239
4.080	27.339	0.239
4.090	27.568	0.239
4.100	27.748	0.239
4.110	27.899	0.239
4.120	28.016	0.239
4.130	28.094	0.239
4.140	28.137	0.239
4.150	28.141	0.239
4.160	28.107	0.239
4.170	28.039	0.239
4.180	27.932	0.239
4.190	27.794	0.239
4.200	27.623	0.239
4.210	27.413	0.239
4.220	27.176	0.239
4.230	26.910	0.239
4.240	26.639	0.239
4.250	26.317	0.239
4.260	25.978	0.239
4.270	25.630	0.239
4.280	25.231	0.239
4.290	24.814	0.239
4.300	24.427	0.239
4.310	24.023	0.239
4.320	23.594	0.239
4.330	23.177	0.239
4.340	22.722	0.239
4.350	22.339	0.239
4.360	21.987	0.239
4.370	21.536	0.239
4.380	21.123	0.239
4.390	20.763	0.239
4.400	20.419	0.239
4.410	20.088	0.239
4.420	19.787	0.239
4.430	19.538	0.239
4.440	19.298	0.239
4.450	19.049	0.239
4.460	18.890	0.239
4.470	18.702	0.239
4.480	18.628	0.239
4.490	18.543	0.239
4.500	18.487	0.239
4.510	18.492	0.239
4.520	18.522	0.239
4.530	18.591	0.239
4.540	18.669	0.239
4.550	18.833	0.239
4.560	18.992	0.239
4.570	19.212	0.239
4.580	19.419	0.239
4.590	19.716	0.239
4.600	20.008	0.239
4.610	20.327	0.239
4.620	20.667	0.239
4.630	20.998	0.239
4.640	21.377	0.239
4.650	21.747	0.239
4.660	22.139	0.239
4.670	22.569	0.239
4.680	22.991	0.239
4.690	23.408	0.239
4.700	23.825	0.239
4.710	24.239	0.239
4.720	24.617	0.239
4.730	25.014	0.239
4.740	25.392	0.239
4.750	25.754	0.239
4.760	26.098	0.239
4.770	26.416	0.239
4.780	26.713	0.239
4.790	26.963	0.239
4.800	27.209	0.239
4.810	27.419	0.239
4.820	27.605	0.239
4.830	27.751	0.239
4.840	27.868	0.239
4.850	27.945	0.239
4.860	27.993	0.239
4.870	27.998	0.239
4.880	27.972	0.239
4.890	27.904	0.239
4.900	27.805	0.239
4.910	27.668	0.239
4.920	27.501	0.239
4.930	27.299	0.239
4.940	27.067	0.239
4.950	26.822	0.239
4.960	26.534	0.239
4.970	26.221	0.239
4.980	25.886	0.239
4.990	25.530	0.239
5.000	25.160	0.239
5.010	24.799	0.239
5.020	24.404	0.239
5.030	24.000	0.239
5.040	23.592	0.239
5.050	23.167	0.239
5.060	22.732	0.239
5.070	22.342	0.239
5.080	21.938	0.239
5.090	21.547	0.239
5.100	21.122	0.239
5.110	20.782	0.239
5.120	20.447	0.239
5.130	20.121	0.239
5.140	19.829	0.239
5.150	19.580	0.239
5.160	19.331	0.239
5.170	19.098	0.239
5.180	18.944	0.239
5.190	18.768	0.239
5.200	18.653	0.239
5.210	18.601	0.239
5.220	18.558	0.239
5.230	18.550	0.239
5.240	18.576	0.239
5.250	18.624	0.239
5.260	18.706	0.239
5.270	18.878	0.239
5.280	19.016	0.239
5.290	19.253	0.239
5.300	19.464	0.239
5.310	19.722	0.239
5.320	20.028	0.239
5.330	20.355	0.239
5.340	20.699	0.239
5.350	21.035	0.239
5.360	21.392	0.239
5.370	21.771	0.239
5.380	22.201	0.239
5.390	22.610	0.239
5.400	23.011	0.239
5.410	23.415	0.239
5.420	23.828	0.239
5.430	24.233	0.239
5.440	24.663	0.239
5.450	25.054	0.239
5.460	25.416	0.239
5.470	25.756	0.239
5.480	26.100	0.239
5.490	26.410	0.239
5.500	26.716	0.239
5.510	26.987	0.239
5.520	27.232	0.239
5.530	27.448	0.239
5.540	27.629	0.239
5.550	27.779	0.239
5.560	27.892	0.239
5.570	27.969	0.239
5.580	28.013	0.239
5.590	28.021	0.239
5.600	27.992	0.239
5.610	27.928	0.239
5.620	27.829	0.239
5.630	27.696	0.239
5.640	27.524	0.239
5.650	27.327	0.239
5.660	27.099	0.239
5.670	26.859	0.239
5.680	26.571	0.239
5.690	26.262	0.239
5.700	25.953	0.239
5.710	25.600	0.239
5.720	25.223	0.239
5.730	24.819	0.239
5.740	24.449	0.239
5.750	24.045	0.239
5.760	23.633	0.239
5.770	23.216	0.239
5.780	22.778	0.239
5.790	22.374	0.239
5.800	21.992	0.239
5.810	21.605	0.239
5.820	21.248	0.239
5.830	20.836	0.239
5.840	20.497	0.239
5.850	20.179	0.239
5.860	19.900	0.239
5.870	19.633	0.239
5.880	19.363	0.239
5.890	19.174	0.239
5.900	18.985	0.239
5.910	18.835	0.239
5.920	18.693	0.239
5.930	18.638	0.239
5.940	18.591	0.239
5.950	18.583	0.239
5.960	18.609	0.239
5.970	18.665	0.239
5.980	18.743	0.239
5.990	18.902	0.239
6.000	19.049	0.239
6.010	19.268	0.239
6.020	19.497	0.239
6.030	19.746	0.239
6.040	20.043	0.239
6.050	20.349	0.239
6.060	20.655	0.239
6.070	21.008	0.239
6.080	21.377	0.239
6.090	21.743	0.239
6.100	22.127	0.239
6.110	22.557	0.239
6.120	22.965	0.239
6.130	23.374	0.239
6.140	23.783	0.239
6.150	24.187	0.239
6.160	24.584	0.239
6.170	24.949	0.239
6.180	25.324	0.239
6.190	25.681	0.239
6.200	26.021	0.239
6.210	26.326	0.239
6.220	26.623	0.239
6.230	26.895	0.239
6.240	27.136	0.239
6.250	27.351	0.239
6.260	27.532	0.239
6.270	27.683	0.239
6.280	27.799	0.239
6.290	27.881	0.239
6.300	27.929	0.239
6.310	27.921	0.239
6.320	27.895	0.239
6.330	27.835	0.239
6.340	27.741	0.239
6.350	27.612	0.239
6.360	27.449	0.239
6.370	27.274	0.239
6.380	27.050	0.239
6.390	26.792	0.239
6.400	26.513	0.239
6.410	26.213	0.239
6.420	25.886	0.239
6.430	25.564	0.239
6.440	25.203	0.239
6.450	24.829	0.239
6.460	24.443	0.239
6.470	24.043	0.239
6.480	23.640	0.239
6.490	23.232	0.239
6.500	22.802	0.239
6.510	22.381	0.239
6.520	22.059	0.239
6.530	21.681	0.239
6.540	21.298	0.239
6.550	20.938	0.239
6.560	20.585	0.239
6.570	20.271	0.239
6.580	19.975	0.239
6.590	19.683	0.239
6.600	19.426	0.239
6.610	19.241	0.239
6.620	19.018	0.239
6.630	18.911	0.239
6.640	18.765	0.239
6.650	18.671	0.239
6.660	18.640	0.239
6.670	18.632	0.239
6.680	18.646	0.239
6.690	18.706	0.239
6.700	18.844	0.239
6.710	18.952	0.239
6.720	19.107	0.239
6.730	19.318	0.239
6.740	19.563	0.239
6.750	19.779	0.239
6.760	20.067	0.239
6.770	20.386	0.239
6.780	20.708	0.239
6.790	21.044	0.239
6.800	21.402	0.239
6.810	21.771	0.239
6.820	22.172	0.239
6.830	22.593	0.239
6.840	22.998	0.239
6.850	23.385	0.239
6.860	23.794	0.239
6.870	24.190	0.239
6.880	24.603	0.239
6.890	24.986	0.239
6.900	25.356	0.239
6.910	25.687	0.239
6.920	26.023	0.239
6.930	26.320	0.239
6.940	26.613	0.239
6.950	26.875	0.239
6.960	27.112	0.239
6.970	27.323	0.239
6.980	27.500	0.239
6.990	27.634	0.239
7.000	27.746	0.239
7.010	27.824	0.239
7.020	27.867	0.239
7.030	27.876	0.239
7.040	27.850	0.239
7.050	27.790	0.239
7.060	27.692	0.239
7.070	27.563	0.239
7.080	27.404	0.239
7.090	27.211	0.239
7.100	26.988	0.239
7.110	26.739	0.239
7.120	26.460	0.239
7.130	26.176	0.239
7.140	25.854	0.239
7.150	25.511	0.239
7.160	25.150	0.239
7.170	24.776	0.239
7.180	24.415	0.239
7.190	24.020	0.239
7.200	23.620	0.239
7.210	23.221	0.239
7.220	22.821	0.239
7.230	22.405	0.239
7.240	22.035	0.239
7.250	21.653	0.239
7.260	21.283	0.239
7.270	20.931	0.239
7.280	20.596	0.239
7.290	20.308	0.239
7.300	20.016	0.239
7.310	19.750	0.239
7.320	19.505	0.239
7.330	19.291	0.239
7.340	19.085	0.239
7.350	18.964	0.239
7.360	18.849	0.239
7.370	18.733	0.239
7.380	18.686	0.239
7.390	18.686	0.239
7.400	18.699	0.239
7.410	18.751	0.239
7.420	18.881	0.239
7.430	18.997	0.239
7.440	19.152	0.239
7.450	19.355	0.239
7.460	19.583	0.239
7.470	19.802	0.239
7.480	20.082	0.239
7.490	20.422	0.239
7.500	20.750	0.239
7.510	21.046	0.239
7.520	21.386	0.239
7.530	21.748	0.239
7.540	22.152	0.239
7.550	22.574	0.239
7.560	22.974	0.239
7.570	23.375	0.239
7.580	23.775	0.239
7.590	24.166	0.239
7.600	24.562	0.239
7.610	24.941	0.239
7.620	25.285	0.239
7.630	25.638	0.239
7.640	25.974	0.239
7.650	26.288	0.239
7.660	26.559	0.239
7.670	26.822	0.239
7.680	27.063	0.239
7.690	27.274	0.239
7.700	27.455	0.239
7.710	27.602	0.239
7.720	27.718	0.239
7.730	27.800	0.239
7.740	27.848	0.239
7.750	27.857	0.239
7.760	27.835	0.239
7.770	27.767	0.239
7.780	27.673	0.239
7.790	27.548	0.239
7.800	27.394	0.239
7.810	27.205	0.239
7.820	26.969	0.239
7.830	26.741	0.239
7.840	26.484	0.239
7.850	26.192	0.239
7.860	25.874	0.239
7.870	25.560	0.239
7.880	25.191	0.239
7.890	24.817	0.239
7.900	24.461	0.239
7.910	24.070	0.239
7.920	23.670	0.239
7.930	23.279	0.239
7.940	22.879	0.239
7.950	22.446	0.239
7.960	22.068	0.239
7.970	21.707	0.239
7.980	21.371	0.239
7.990	21.036	0.239
8.000	20.697	0.239
8.010	20.375	0.239
8.020	20.062	0.239
8.030	19.799	0.239
8.040	19.589	0.239
8.050	19.344	0.239
8.060	19.186	0.239
8.070	19.018	0.239
8.080	18.932	0.239
8.090	18.830	0.239
8.100	18.766	0.239
8.110	18.757	0.239
8.120	18.779	0.239
8.130	18.865	0.239
8.140	18.956	0.239
8.150	19.047	0.239
8.160	19.224	0.239
8.170	19.383	0.239
8.180	19.628	0.239
8.190	19.852	0.239
8.200	20.102	0.239
8.210	20.420	0.239
8.220	20.730	0.239
8.230	21.066	0.239
8.240	21.402	0.239
8.250	21.750	0.239
8.260	22.129	0.239
8.270	22.542	0.239
8.280	22.934	0.239
8.290	23.330	0.239
8.300	23.721	0.239
8.310	24.087	0.239
8.320	24.470	0.239
8.330	24.845	0.239
8.340	25.180	0.239
8.350	25.529	0.239
8.360	25.856	0.239
8.370	26.161	0.239
8.380	26.445	0.239
8.390	26.708	0.239
8.400	26.945	0.239
8.410	27.147	0.239
8.420	27.324	0.239
8.430	27.471	0.239
8.440	27.583	0.239
8.450	27.664	0.239
8.460	27.712	0.239
8.470	27.726	0.239
8.480	27.704	0.239
8.490	27.649	0.239
8.500	27.563	0.239
8.510	27.443	0.239
8.520	27.289	0.239
8.530	27.108	0.239
8.540	26.893	0.239
8.550	26.640	0.239
8.560	26.378	0.239
8.570	26.104	0.239
8.580	25.794	0.239
8.590	25.463	0.239
8.600	25.120	0.239
8.610	24.755	0.239
8.620	24.407	0.239
8.630	24.029	0.239
8.640	23.642	0.239
8.650	23.255	0.239
8.660	22.864	0.239
8.670	22.452	0.239
8.680	22.070	0.239
8.690	21.730	0.239
8.700	21.370	0.239
8.710	21.026	0.239
8.720	20.699	0.239
8.730	20.425	0.239
8.740	20.102	0.239
8.750	19.854	0.239
8.760	19.626	0.239
8.770	19.385	0.239
8.780	19.239	0.239
8.790	19.064	0.239
8.800	18.978	0.239
8.810	18.896	0.239
8.820	18.832	0.239
8.830	18.824	0.239
8.840	18.850	0.239
8.850	18.911	0.239
8.860	18.984	0.239
8.870	19.088	0.239
8.880	19.273	0.239
8.890	19.424	0.239
8.900	19.673	0.239
8.910	19.902	0.239
8.920	20.130	0.239
8.930	20.435	0.239
8.940	20.750	0.239
8.950	21.068	0.239
8.960	21.413	0.239
8.970	21.770	0.239
8.980	22.136	0.239
8.990	22.557	0.239
9.000	22.944	0.239
9.010	23.323	0.239
9.020	23.711	0.239
9.030	24.098	0.239
9.040	24.468	0.239
9.050	24.842	0.239
9.060	25.230	0.239
9.070	25.574	0.239
9.080	25.875	0.239
9.090	26.185	0.239
9.100	26.473	0.239
9.110	26.715	0.239
9.120	26.947	0.239
9.130	27.154	0.239
9.140	27.335	0.239
9.150	27.481	0.239
9.160	27.598	0.239
9.170	27.680	0.239